# Pulseq sequence file
# Created by PyPulseq

# Created for Pulseq-CEST
# https://pulseq-cest.github.io/
# Created by: Patrick Schuenke
# Created at: 24-Aug-2022 11:59:54

[VERSION]
major 1
minor 4
revision 0

[DEFINITIONS]
AdcRasterTime 1e-07
B0 3
B1cwpe 3.7
BlockDurationRaster 1e-05
GradientRasterTime 1e-05
M0_offset -300
RadiofrequencyRasterTime 1e-06
Trec 3
Trec_M0 12
Tsat 0.005
n_pulses 1
num_meas 32
offsets_ppm -300 -2 -1.86666667 -1.73333333 -1.6 -1.46666667 -1.33333333 -1.2 -1.06666667 -0.933333333 -0.8 -0.666666667 -0.533333333 -0.4 -0.266666667 -0.133333333 0 0.133333333 0.266666667 0.4 0.533333333 0.666666667 0.8 0.933333333 1.06666667 1.2 1.33333333 1.46666667 1.6 1.73333333 1.86666667 2
seq_id_string WASABI
tp 0.005

# Format of blocks:
# NUM DUR RF  GX  GY  GZ  ADC  EXT
[BLOCKS]
  1 1200000   0   0   0   0  0  0
  2 513   1   0   0   0  0  0
  3 650   0   1   1   1  0  0
  4 100   0   0   0   0  1  0
  5 300000   0   0   0   0  0  0
  6 513   2   0   0   0  0  0
  7 650   0   1   1   1  0  0
  8 100   0   0   0   0  1  0
  9 300000   0   0   0   0  0  0
 10 513   3   0   0   0  0  0
 11 650   0   1   1   1  0  0
 12 100   0   0   0   0  1  0
 13 300000   0   0   0   0  0  0
 14 513   4   0   0   0  0  0
 15 650   0   1   1   1  0  0
 16 100   0   0   0   0  1  0
 17 300000   0   0   0   0  0  0
 18 513   5   0   0   0  0  0
 19 650   0   1   1   1  0  0
 20 100   0   0   0   0  1  0
 21 300000   0   0   0   0  0  0
 22 513   6   0   0   0  0  0
 23 650   0   1   1   1  0  0
 24 100   0   0   0   0  1  0
 25 300000   0   0   0   0  0  0
 26 513   7   0   0   0  0  0
 27 650   0   1   1   1  0  0
 28 100   0   0   0   0  1  0
 29 300000   0   0   0   0  0  0
 30 513   8   0   0   0  0  0
 31 650   0   1   1   1  0  0
 32 100   0   0   0   0  1  0
 33 300000   0   0   0   0  0  0
 34 513   9   0   0   0  0  0
 35 650   0   1   1   1  0  0
 36 100   0   0   0   0  1  0
 37 300000   0   0   0   0  0  0
 38 513  10   0   0   0  0  0
 39 650   0   1   1   1  0  0
 40 100   0   0   0   0  1  0
 41 300000   0   0   0   0  0  0
 42 513  11   0   0   0  0  0
 43 650   0   1   1   1  0  0
 44 100   0   0   0   0  1  0
 45 300000   0   0   0   0  0  0
 46 513  12   0   0   0  0  0
 47 650   0   1   1   1  0  0
 48 100   0   0   0   0  1  0
 49 300000   0   0   0   0  0  0
 50 513  13   0   0   0  0  0
 51 650   0   1   1   1  0  0
 52 100   0   0   0   0  1  0
 53 300000   0   0   0   0  0  0
 54 513  14   0   0   0  0  0
 55 650   0   1   1   1  0  0
 56 100   0   0   0   0  1  0
 57 300000   0   0   0   0  0  0
 58 513  15   0   0   0  0  0
 59 650   0   1   1   1  0  0
 60 100   0   0   0   0  1  0
 61 300000   0   0   0   0  0  0
 62 513  16   0   0   0  0  0
 63 650   0   1   1   1  0  0
 64 100   0   0   0   0  1  0
 65 300000   0   0   0   0  0  0
 66 513  17   0   0   0  0  0
 67 650   0   1   1   1  0  0
 68 100   0   0   0   0  1  0
 69 300000   0   0   0   0  0  0
 70 513  18   0   0   0  0  0
 71 650   0   1   1   1  0  0
 72 100   0   0   0   0  1  0
 73 300000   0   0   0   0  0  0
 74 513  19   0   0   0  0  0
 75 650   0   1   1   1  0  0
 76 100   0   0   0   0  1  0
 77 300000   0   0   0   0  0  0
 78 513  20   0   0   0  0  0
 79 650   0   1   1   1  0  0
 80 100   0   0   0   0  1  0
 81 300000   0   0   0   0  0  0
 82 513  21   0   0   0  0  0
 83 650   0   1   1   1  0  0
 84 100   0   0   0   0  1  0
 85 300000   0   0   0   0  0  0
 86 513  22   0   0   0  0  0
 87 650   0   1   1   1  0  0
 88 100   0   0   0   0  1  0
 89 300000   0   0   0   0  0  0
 90 513  23   0   0   0  0  0
 91 650   0   1   1   1  0  0
 92 100   0   0   0   0  1  0
 93 300000   0   0   0   0  0  0
 94 513  24   0   0   0  0  0
 95 650   0   1   1   1  0  0
 96 100   0   0   0   0  1  0
 97 300000   0   0   0   0  0  0
 98 513  25   0   0   0  0  0
 99 650   0   1   1   1  0  0
100 100   0   0   0   0  1  0
101 300000   0   0   0   0  0  0
102 513  26   0   0   0  0  0
103 650   0   1   1   1  0  0
104 100   0   0   0   0  1  0
105 300000   0   0   0   0  0  0
106 513  27   0   0   0  0  0
107 650   0   1   1   1  0  0
108 100   0   0   0   0  1  0
109 300000   0   0   0   0  0  0
110 513  28   0   0   0  0  0
111 650   0   1   1   1  0  0
112 100   0   0   0   0  1  0
113 300000   0   0   0   0  0  0
114 513  29   0   0   0  0  0
115 650   0   1   1   1  0  0
116 100   0   0   0   0  1  0
117 300000   0   0   0   0  0  0
118 513  30   0   0   0  0  0
119 650   0   1   1   1  0  0
120 100   0   0   0   0  1  0
121 300000   0   0   0   0  0  0
122 513  31   0   0   0  0  0
123 650   0   1   1   1  0  0
124 100   0   0   0   0  1  0
125 300000   0   0   0   0  0  0
126 513  32   0   0   0  0  0
127 650   0   1   1   1  0  0
128 100   0   0   0   0  1  0

# Format of RF events:
# id amplitude mag_id phase_id time_shape_id delay freq phase
# ..        Hz   ....     ....          ....    us   Hz   rad
[RF]
1      157.533 1 2 3 100 -38318.8 0
2      157.533 1 2 3 100 -255.458 0
3      157.533 1 2 3 100 -238.428 0
4      157.533 1 2 3 100 -221.397 0
5      157.533 1 2 3 100 -204.367 0
6      157.533 1 2 3 100 -187.336 0
7      157.533 1 2 3 100 -170.306 0
8      157.533 1 2 3 100 -153.275 0
9      157.533 1 2 3 100 -136.244 0
10      157.533 1 2 3 100 -119.214 0
11      157.533 1 2 3 100 -102.183 0
12      157.533 1 2 3 100 -85.1528 0
13      157.533 1 2 3 100 -68.1222 0
14      157.533 1 2 3 100 -51.0917 0
15      157.533 1 2 3 100 -34.0611 0
16      157.533 1 2 3 100 -17.0306 0
17      157.533 1 2 3 100 0 0
18      157.533 1 2 3 100 17.0306 0
19      157.533 1 2 3 100 34.0611 0
20      157.533 1 2 3 100 51.0917 0
21      157.533 1 2 3 100 68.1222 0
22      157.533 1 2 3 100 85.1528 0
23      157.533 1 2 3 100 102.183 0
24      157.533 1 2 3 100 119.214 0
25      157.533 1 2 3 100 136.244 0
26      157.533 1 2 3 100 153.275 0
27      157.533 1 2 3 100 170.306 0
28      157.533 1 2 3 100 187.336 0
29      157.533 1 2 3 100 204.367 0
30      157.533 1 2 3 100 221.397 0
31      157.533 1 2 3 100 238.428 0
32      157.533 1 2 3 100 255.458 0

# Format of trapezoid gradients:
# id amplitude rise flat fall delay
# ..      Hz/m   us   us   us    us
[TRAP]
 1  1.36243e+06 1000 4500 1000   0

# Format of ADC events:
# id num dwell delay freq phase
# ..  ..    ns    us   Hz   rad
[ADC]
1 1 1000000 0 0 0

# Sequence Shapes
[SHAPES]

shape_id 1
num_samples 2
1
1

shape_id 2
num_samples 2
0
0

shape_id 3
num_samples 2
0
5000


[SIGNATURE]
# This is the hash of the Pulseq file, calculated right before the [SIGNATURE] section was added
# It can be reproduced/verified with md5sum if the file trimmed to the position right above [SIGNATURE]
# The new line character preceding [SIGNATURE] BELONGS to the signature (and needs to be stripped away for recalculating/verification)
Type md5
Hash 80738167bb4376dbcc73dc32fdc9b606
