# Pulseq sequence file
# Created by PyPulseq

[VERSION]
major 1
minor 3
revision 0

[DEFINITIONS]
offsets_ppm -2 -1.86667 -1.73333 -1.6 -1.46667 -1.33333 -1.2 -1.06667 -0.933333 -0.8 -0.666667 -0.533333 -0.4 -0.266667 -0.133333 0 0.133333 0.266667 0.4 0.533333 0.666667 0.8 0.933333 1.06667 1.2 1.33333 1.46667 1.6 1.73333 1.86667 2 
run_m0_scan True 

# Format of blocks:
#  #  D RF  GX  GY  GZ ADC EXT
[BLOCKS]
  1   1   0   0   0   0   0   0   
  2   0   0   0   0   0   1   0   
  3   0   1   0   0   0   0   0   
  4   2   0   0   0   0   0   0   
  5   0   0   1   2   3   0   0   
  6   2   0   0   0   0   0   0   
  7   0   1   0   0   0   0   0   
  8   2   0   0   0   0   0   0   
  9   0   0   2   3   1   0   0   
 10   2   0   0   0   0   0   0   
 11   0   1   0   0   0   0   0   
 12   2   0   0   0   0   0   0   
 13   0   0   3   1   2   0   0   
 14   2   0   0   0   0   0   0   
 15   3   0   0   0   0   0   0   
 16   0   2   0   0   0   0   0   
 17   2   0   0   0   0   0   0   
 18   0   0   1   1   1   0   0   
 19   2   0   0   0   0   0   0   
 20   0   0   0   0   0   1   0   
 21   0   1   0   0   0   0   0   
 22   2   0   0   0   0   0   0   
 23   0   0   1   2   3   0   0   
 24   2   0   0   0   0   0   0   
 25   0   1   0   0   0   0   0   
 26   2   0   0   0   0   0   0   
 27   0   0   2   3   1   0   0   
 28   2   0   0   0   0   0   0   
 29   0   1   0   0   0   0   0   
 30   2   0   0   0   0   0   0   
 31   0   0   3   1   2   0   0   
 32   2   0   0   0   0   0   0   
 33   3   0   0   0   0   0   0   
 34   0   3   0   0   0   0   0   
 35   2   0   0   0   0   0   0   
 36   0   0   1   1   1   0   0   
 37   2   0   0   0   0   0   0   
 38   0   0   0   0   0   1   0   
 39   0   1   0   0   0   0   0   
 40   2   0   0   0   0   0   0   
 41   0   0   1   2   3   0   0   
 42   2   0   0   0   0   0   0   
 43   0   1   0   0   0   0   0   
 44   2   0   0   0   0   0   0   
 45   0   0   2   3   1   0   0   
 46   2   0   0   0   0   0   0   
 47   0   1   0   0   0   0   0   
 48   2   0   0   0   0   0   0   
 49   0   0   3   1   2   0   0   
 50   2   0   0   0   0   0   0   
 51   3   0   0   0   0   0   0   
 52   0   4   0   0   0   0   0   
 53   2   0   0   0   0   0   0   
 54   0   0   1   1   1   0   0   
 55   2   0   0   0   0   0   0   
 56   0   0   0   0   0   1   0   
 57   0   1   0   0   0   0   0   
 58   2   0   0   0   0   0   0   
 59   0   0   1   2   3   0   0   
 60   2   0   0   0   0   0   0   
 61   0   1   0   0   0   0   0   
 62   2   0   0   0   0   0   0   
 63   0   0   2   3   1   0   0   
 64   2   0   0   0   0   0   0   
 65   0   1   0   0   0   0   0   
 66   2   0   0   0   0   0   0   
 67   0   0   3   1   2   0   0   
 68   2   0   0   0   0   0   0   
 69   3   0   0   0   0   0   0   
 70   0   5   0   0   0   0   0   
 71   2   0   0   0   0   0   0   
 72   0   0   1   1   1   0   0   
 73   2   0   0   0   0   0   0   
 74   0   0   0   0   0   1   0   
 75   0   1   0   0   0   0   0   
 76   2   0   0   0   0   0   0   
 77   0   0   1   2   3   0   0   
 78   2   0   0   0   0   0   0   
 79   0   1   0   0   0   0   0   
 80   2   0   0   0   0   0   0   
 81   0   0   2   3   1   0   0   
 82   2   0   0   0   0   0   0   
 83   0   1   0   0   0   0   0   
 84   2   0   0   0   0   0   0   
 85   0   0   3   1   2   0   0   
 86   2   0   0   0   0   0   0   
 87   3   0   0   0   0   0   0   
 88   0   6   0   0   0   0   0   
 89   2   0   0   0   0   0   0   
 90   0   0   1   1   1   0   0   
 91   2   0   0   0   0   0   0   
 92   0   0   0   0   0   1   0   
 93   0   1   0   0   0   0   0   
 94   2   0   0   0   0   0   0   
 95   0   0   1   2   3   0   0   
 96   2   0   0   0   0   0   0   
 97   0   1   0   0   0   0   0   
 98   2   0   0   0   0   0   0   
 99   0   0   2   3   1   0   0   
100   2   0   0   0   0   0   0   
101   0   1   0   0   0   0   0   
102   2   0   0   0   0   0   0   
103   0   0   3   1   2   0   0   
104   2   0   0   0   0   0   0   
105   3   0   0   0   0   0   0   
106   0   7   0   0   0   0   0   
107   2   0   0   0   0   0   0   
108   0   0   1   1   1   0   0   
109   2   0   0   0   0   0   0   
110   0   0   0   0   0   1   0   
111   0   1   0   0   0   0   0   
112   2   0   0   0   0   0   0   
113   0   0   1   2   3   0   0   
114   2   0   0   0   0   0   0   
115   0   1   0   0   0   0   0   
116   2   0   0   0   0   0   0   
117   0   0   2   3   1   0   0   
118   2   0   0   0   0   0   0   
119   0   1   0   0   0   0   0   
120   2   0   0   0   0   0   0   
121   0   0   3   1   2   0   0   
122   2   0   0   0   0   0   0   
123   3   0   0   0   0   0   0   
124   0   8   0   0   0   0   0   
125   2   0   0   0   0   0   0   
126   0   0   1   1   1   0   0   
127   2   0   0   0   0   0   0   
128   0   0   0   0   0   1   0   
129   0   1   0   0   0   0   0   
130   2   0   0   0   0   0   0   
131   0   0   1   2   3   0   0   
132   2   0   0   0   0   0   0   
133   0   1   0   0   0   0   0   
134   2   0   0   0   0   0   0   
135   0   0   2   3   1   0   0   
136   2   0   0   0   0   0   0   
137   0   1   0   0   0   0   0   
138   2   0   0   0   0   0   0   
139   0   0   3   1   2   0   0   
140   2   0   0   0   0   0   0   
141   3   0   0   0   0   0   0   
142   0   9   0   0   0   0   0   
143   2   0   0   0   0   0   0   
144   0   0   1   1   1   0   0   
145   2   0   0   0   0   0   0   
146   0   0   0   0   0   1   0   
147   0   1   0   0   0   0   0   
148   2   0   0   0   0   0   0   
149   0   0   1   2   3   0   0   
150   2   0   0   0   0   0   0   
151   0   1   0   0   0   0   0   
152   2   0   0   0   0   0   0   
153   0   0   2   3   1   0   0   
154   2   0   0   0   0   0   0   
155   0   1   0   0   0   0   0   
156   2   0   0   0   0   0   0   
157   0   0   3   1   2   0   0   
158   2   0   0   0   0   0   0   
159   3   0   0   0   0   0   0   
160   0  10   0   0   0   0   0   
161   2   0   0   0   0   0   0   
162   0   0   1   1   1   0   0   
163   2   0   0   0   0   0   0   
164   0   0   0   0   0   1   0   
165   0   1   0   0   0   0   0   
166   2   0   0   0   0   0   0   
167   0   0   1   2   3   0   0   
168   2   0   0   0   0   0   0   
169   0   1   0   0   0   0   0   
170   2   0   0   0   0   0   0   
171   0   0   2   3   1   0   0   
172   2   0   0   0   0   0   0   
173   0   1   0   0   0   0   0   
174   2   0   0   0   0   0   0   
175   0   0   3   1   2   0   0   
176   2   0   0   0   0   0   0   
177   3   0   0   0   0   0   0   
178   0  11   0   0   0   0   0   
179   2   0   0   0   0   0   0   
180   0   0   1   1   1   0   0   
181   2   0   0   0   0   0   0   
182   0   0   0   0   0   1   0   
183   0   1   0   0   0   0   0   
184   2   0   0   0   0   0   0   
185   0   0   1   2   3   0   0   
186   2   0   0   0   0   0   0   
187   0   1   0   0   0   0   0   
188   2   0   0   0   0   0   0   
189   0   0   2   3   1   0   0   
190   2   0   0   0   0   0   0   
191   0   1   0   0   0   0   0   
192   2   0   0   0   0   0   0   
193   0   0   3   1   2   0   0   
194   2   0   0   0   0   0   0   
195   3   0   0   0   0   0   0   
196   0  12   0   0   0   0   0   
197   2   0   0   0   0   0   0   
198   0   0   1   1   1   0   0   
199   2   0   0   0   0   0   0   
200   0   0   0   0   0   1   0   
201   0   1   0   0   0   0   0   
202   2   0   0   0   0   0   0   
203   0   0   1   2   3   0   0   
204   2   0   0   0   0   0   0   
205   0   1   0   0   0   0   0   
206   2   0   0   0   0   0   0   
207   0   0   2   3   1   0   0   
208   2   0   0   0   0   0   0   
209   0   1   0   0   0   0   0   
210   2   0   0   0   0   0   0   
211   0   0   3   1   2   0   0   
212   2   0   0   0   0   0   0   
213   3   0   0   0   0   0   0   
214   0  13   0   0   0   0   0   
215   2   0   0   0   0   0   0   
216   0   0   1   1   1   0   0   
217   2   0   0   0   0   0   0   
218   0   0   0   0   0   1   0   
219   0   1   0   0   0   0   0   
220   2   0   0   0   0   0   0   
221   0   0   1   2   3   0   0   
222   2   0   0   0   0   0   0   
223   0   1   0   0   0   0   0   
224   2   0   0   0   0   0   0   
225   0   0   2   3   1   0   0   
226   2   0   0   0   0   0   0   
227   0   1   0   0   0   0   0   
228   2   0   0   0   0   0   0   
229   0   0   3   1   2   0   0   
230   2   0   0   0   0   0   0   
231   3   0   0   0   0   0   0   
232   0  14   0   0   0   0   0   
233   2   0   0   0   0   0   0   
234   0   0   1   1   1   0   0   
235   2   0   0   0   0   0   0   
236   0   0   0   0   0   1   0   
237   0   1   0   0   0   0   0   
238   2   0   0   0   0   0   0   
239   0   0   1   2   3   0   0   
240   2   0   0   0   0   0   0   
241   0   1   0   0   0   0   0   
242   2   0   0   0   0   0   0   
243   0   0   2   3   1   0   0   
244   2   0   0   0   0   0   0   
245   0   1   0   0   0   0   0   
246   2   0   0   0   0   0   0   
247   0   0   3   1   2   0   0   
248   2   0   0   0   0   0   0   
249   3   0   0   0   0   0   0   
250   0  15   0   0   0   0   0   
251   2   0   0   0   0   0   0   
252   0   0   1   1   1   0   0   
253   2   0   0   0   0   0   0   
254   0   0   0   0   0   1   0   
255   0   1   0   0   0   0   0   
256   2   0   0   0   0   0   0   
257   0   0   1   2   3   0   0   
258   2   0   0   0   0   0   0   
259   0   1   0   0   0   0   0   
260   2   0   0   0   0   0   0   
261   0   0   2   3   1   0   0   
262   2   0   0   0   0   0   0   
263   0   1   0   0   0   0   0   
264   2   0   0   0   0   0   0   
265   0   0   3   1   2   0   0   
266   2   0   0   0   0   0   0   
267   3   0   0   0   0   0   0   
268   0  16   0   0   0   0   0   
269   2   0   0   0   0   0   0   
270   0   0   1   1   1   0   0   
271   2   0   0   0   0   0   0   
272   0   0   0   0   0   1   0   
273   0   1   0   0   0   0   0   
[RF]
1      935.579 1 2 100 0 0
2       159.66 3 4 100 -255.456 0
3       159.66 3 4 100 -238.426 0
4       159.66 3 4 100 -221.395 0
5       159.66 3 4 100 -204.365 0
6       159.66 3 4 100 -187.334 0
7       159.66 3 4 100 -170.304 0
8       159.66 3 4 100 -153.274 0
9       159.66 3 4 100 -136.243 0
10       159.66 3 4 100 -119.213 0
11       159.66 3 4 100 -102.182 0
12       159.66 3 4 100 -85.152 0
13       159.66 3 4 100 -68.1216 0
14       159.66 3 4 100 -51.0912 0
15       159.66 3 4 100 -34.0608 0
16       159.66 3 4 100 -17.0304 0
17       159.66 3 4 100 0 0
18       159.66 3 4 100 17.0304 0
19       159.66 3 4 100 34.0608 0
20       159.66 3 4 100 51.0912 0
21       159.66 3 4 100 68.1216 0
22       159.66 3 4 100 85.152 0
23       159.66 3 4 100 102.182 0
24       159.66 3 4 100 119.213 0
25       159.66 3 4 100 136.243 0
26       159.66 3 4 100 153.274 0
27       159.66 3 4 100 170.304 0
28       159.66 3 4 100 187.334 0
29       159.66 3 4 100 204.365 0
30       159.66 3 4 100 221.395 0
31       159.66 3 4 100 238.426 0
32       159.66 3 4 100 255.456 0

# Format of trapezoid gradients:
# id amplitude rise flat fall delay
# ..      Hz/m   us   us   us    us
[TRAP]
 1  1.36243e+06 1000 3500 1000   0
 2 -1.19213e+06 1000 3500 1000   0
 3  1.02182e+06 1000 3500 1000   0

# Format of ADC events:
# id num dwell delay freq phase
# ..  ..    ns    us   Hz   rad
[ADC]
1 1 1000000 0 0 0

# Format of delays:
# id delay (us)
[DELAYS]
1 12000000
2 1000
3 2000000

# Sequence Shapes
[SHAPES]

shape_id 1
num_samples 2530
0.21237498
0.00016564
0.00016289
0.00016012
0.00015735
0.00015457
0.00015179
0.000149
0.0001462
0.0001434
0.00014059
0.00013778
0.00013495
0.00013213
0.00012929
0.00012645
0.0001236
0.00012075
0.00011789
0.00011503
0.00011216
0.00010927
0.0001064
0.0001035
0.00010061
9.77e-05
9.48e-05
9.188e-05
8.897e-05
8.604e-05
8.31e-05
8.017e-05
7.723e-05
7.427e-05
7.132e-05
6.836e-05
6.54e-05
6.242e-05
5.944e-05
5.646e-05
5.347e-05
5.048e-05
4.747e-05
4.447e-05
4.145e-05
3.844e-05
3.542e-05
3.239e-05
2.935e-05
2.631e-05
2.327e-05
2.022e-05
1.717e-05
1.41e-05
1.104e-05
7.97e-06
4.89e-06
1.81e-06
-1.28e-06
-4.37e-06
-7.47e-06
-1.057e-05
-1.368e-05
-1.679e-05
-1.991e-05
-2.303e-05
-2.615e-05
-2.929e-05
-3.243e-05
-3.557e-05
-3.872e-05
-4.187e-05
-4.502e-05
-4.819e-05
-5.136e-05
-5.452e-05
-5.77e-05
-6.088e-05
-6.407e-05
-6.726e-05
-7.045e-05
-7.365e-05
-7.685e-05
-8.006e-05
-8.328e-05
-8.649e-05
-8.971e-05
-9.294e-05
-9.617e-05
-9.94e-05
-0.00010264
-0.00010589
-0.00010913
-0.00011238
-0.00011564
-0.0001189
-0.00012217
-0.00012543
-0.0001287
-0.00013198
-0.00013526
-0.00013855
-0.00014183
-0.00014513
-0.00014842
-0.00015172
-0.00015503
-0.00015833
-0.00016164
-0.00016496
-0.00016828
-0.00017161
-0.00017492
-0.00017826
-0.00018159
-0.00018493
-0.00018827
-0.00019161
-0.00019497
-0.00019831
-0.00020167
-0.00020502
-0.00020839
-0.00021175
-0.00021512
-0.00021849
-0.00022186
-0.00022524
-0.00022863
-0.000232
-0.0002354
-0.00023878
-0.00024218
-0.00024557
-0.00024898
-0.00025237
-0.00025578
-0.00025919
-0.0002626
-0.00026601
-0.00026943
-0.00027285
-0.00027627
-0.0002797
-0.00028312
-0.00028656
-0.00028998
-0.00029342
-0.00029686
-0.0003003
-0.00030374
-0.00030719
-0.00031064
-0.00031408
-0.00031754
-0.00032099
-0.00032445
-0.00032791
-0.00033137
-0.00033483
-0.0003383
-0.00034177
-0.00034524
-0.00034871
-0.00035218
-0.00035566
-0.00035914
-0.00036262
-0.0003661
-0.00036958
-0.00037307
-0.00037656
-0.00038004
-0.00038354
-0.00038703
-0.00039052
-0.00039402
-0.00039752
-0.00040102
-0.00040451
-0.00040802
-0.00041153
-0.00041502
-0.00041854
-0.00042204
-0.00042555
-0.00042906
-0.00043258
-0.00043608
-0.0004396
-0.00044312
-0.00044663
-0.00045015
-0.00045367
-0.00045719
-0.0004607
-0.00046423
-0.00046776
-0.00047127
-0.0004748
-0.00047832
-0.00048185
-0.00048538
-0.00048891
-0.00049243
-0.00049596
-0.00049949
-0.00050302
-0.00050655
-0.00051008
-0.00051361
-0.00051715
-0.00052067
-0.00052421
-0.00052774
-0.00053128
-0.00053481
-0.00053834
-0.00054188
-0.00054541
-0.00054894
-0.00055248
-0.00055602
-0.00055954
-0.00056309
-0.00056661
-0.00057016
-0.00057368
-0.00057722
-0.00058076
-0.00058428
-0.00058782
-0.00059136
-0.00059488
-0.00059842
-0.00060196
-0.00060548
-0.00060901
-0.00061255
-0.00061607
-0.00061961
-0.00062313
-0.00062667
-0.00063019
-0.00063371
-0.00063725
-0.00064077
-0.00064429
-0.00064782
-0.00065134
-0.00065486
-0.00065839
-0.0006619
-0.00066542
-0.00066895
-0.00067245
-0.00067598
-0.00067949
-0.000683
-0.00068652
-0.00069002
-0.00069354
-0.00069704
-0.00070055
-0.00070406
-0.00070756
-0.00071106
-0.00071457
-0.00071806
-0.00072156
-0.00072506
-0.00072856
-0.00073204
-0.00073554
-0.00073903
-0.00074251
-0.00074601
-0.00074948
-0.00075297
-0.00075645
-0.00075992
-0.0007634
-0.00076688
-0.00077035
-0.00077382
-0.00077728
-0.00078076
-0.00078421
-0.00078768
-0.00079113
-0.0007946
-0.00079804
-0.0008015
-0.00080495
-0.00080839
-0.00081184
-0.00081528
-0.00081872
-0.00082216
-0.00082559
-0.00082902
-0.00083245
-0.00083588
-0.0008393
-0.00084272
-0.00084613
-0.00084955
-0.00085297
-0.00085637
-0.00085978
-0.00086318
-0.00086657
-0.00086998
-0.00087337
-0.00087676
-0.00088014
-0.00088353
-0.00088691
-0.00089029
-0.00089366
-0.00089703
-0.0009004
-0.00090376
-0.00090712
-0.00091048
-0.00091383
-0.00091717
-0.00092053
-0.00092386
-0.00092721
-0.00093054
-0.00093387
-0.00093719
-0.00094052
-0.00094384
-0.00094716
-0.00095046
-0.00095377
-0.00095708
-0.00096037
-0.00096367
-0.00096696
-0.00097025
-0.00097353
-0.00097681
-0.00098008
-0.00098335
-0.00098662
-0.00098988
-0.00099314
-0.00099639
-0.00099963
-0.00100288
-0.00100612
-0.00100935
-0.00101258
-0.00101581
-0.00101903
-0.00102224
-0.00102545
-0.00102866
-0.00103186
-0.00103506
-0.00103825
-0.00104143
-0.00104462
-0.00104779
-0.00105097
-0.00105413
-0.00105729
-0.00106045
-0.0010636
-0.00106675
-0.00106988
-0.00107303
-0.00107615
-0.00107928
-0.00108239
-0.00108551
-0.00108862
-0.00109173
-0.00109482
-0.00109791
-0.001101
-0.00110408
-0.00110716
-0.00111022
-0.00111329
-0.00111635
-0.0011194
-0.00112245
-0.00112549
-0.00112852
-0.00113155
-0.00113458
-0.00113759
-0.00114061
-0.00114361
-0.0011466
-0.00114961
-0.00115258
-0.00115557
-0.00115855
-0.00116151
-0.00116447
-0.00116744
-0.00117037
-0.00117333
-0.00117626
-0.00117919
-0.00118211
-0.00118503
-0.00118794
-0.00119085
-0.00119375
-0.00119663
-0.0003992
0.0012024
0.00120527
0.00120813
0.00121099
0.00121384
0.00121668
0.00121953
0.00122235
0.00122517
0.001228
0.0012308
0.0012336
0.0012364
0.00123918
0.00124197
0.00124474
0.00124751
0.00125026
0.00125302
0.00125576
0.0012585
0.00126124
0.00126395
0.00126667
0.00126937
0.00127208
0.00127477
0.00127746
0.00128013
0.0012828
0.00128547
0.00128812
0.00129077
0.00129341
0.00129604
0.00129866
0.00130128
0.00130389
0.00130649
0.00130908
0.00131167
0.00131425
0.00131681
0.00131937
0.00132193
0.00132447
0.00132701
0.00132953
0.00133206
0.00133457
0.00133707
0.00133957
0.00134205
0.00134454
0.001347
0.00134947
0.00135192
0.00135437
0.00135681
0.00135923
0.00136165
0.00136407
0.00136647
0.00136886
0.00137125
0.00137362
0.001376
0.00137835
0.00138071
0.00138305
0.00138538
0.0013877
0.00139003
0.00139232
0.00139463
0.00139692
0.00139919
0.00140147
0.00140373
0.00140599
0.00140822
0.00141047
0.00141268
0.00141491
0.00141711
0.00141931
0.00142151
0.00142368
0.00142585
0.00142801
0.00143017
0.0014323
0.00143445
0.00143656
0.00143868
0.00144079
0.00144288
0.00144496
0.00144705
0.00144911
0.00145116
0.00145322
0.00145525
0.00145728
0.0014593
0.00146131
0.00146331
0.0014653
0.00146728
0.00146925
0.00147121
0.00147316
0.0014751
0.00147703
0.00147895
0.00148086
0.00148276
0.00148465
0.00148654
0.0014884
0.00149026
0.00149212
0.00149395
0.00149579
0.0014976
0.00149942
0.00150121
0.00150301
0.00150478
0.00150655
0.00150831
0.00151006
0.00151179
0.00151352
0.00151524
0.00151695
0.00151864
0.00152033
0.001522
0.00152367
0.00152532
0.00152697
0.0015286
0.00153022
0.00153183
0.00153343
0.00153503
0.0015366
0.00153817
0.00153974
0.00154127
0.00154282
0.00154434
0.00154586
0.00154736
0.00154885
0.00155034
0.00155181
0.00155327
0.00155472
0.00155616
0.00155759
0.001559
0.00156041
0.0015618
0.00156319
0.00156456
0.00156593
0.00156727
0.00156861
0.00156995
0.00157126
0.00157256
0.00157386
0.00157514
0.00157642
0.00157768
0.00157892
0.00158017
0.00158139
0.00158261
0.00158381
0.00158501
0.00158619
0.00158736
0.00158851
0.00158967
0.0015908
0.00159192
0.00159304
0.00159414
0.00159523
0.00159631
0.00159738
0.00159843
0.00159948
0.0016005
0.00160153
0.00160254
0.00160353
0.00160452
0.0016055
0.00160645
0.00160741
0.00160835
0.00160927
0.00161019
0.00161109
0.00161198
0.00161287
0.00161373
0.00161458
0.00161544
0.00161626
0.00161709
0.00161789
0.00161869
0.00161948
0.00162025
0.00162101
0.00162176
0.0016225
0.00162322
0.00162393
0.00162464
0.00162532
0.00162601
0.00162666
0.00162732
0.00162796
0.00162859
0.00162921
0.00162981
0.00163041
0.00163098
0.00163155
0.00163211
0.00163265
0.00163318
0.00163371
0.00163421
0.0016347
0.00163519
0.00163566
0.00163611
0.00163657
0.00163699
0.00163742
0.00163783
0.00163822
0.00163861
0.00163898
0.00163933
0.00163969
0.00164002
0.00164035
0.00164065
0.00164096
0.00164123
0.00164151
0.00164178
0.00164202
0.00164225
0.00164248
0.00164269
0.00164289
0.00164308
0.00164325
0.00164341
0.00164355
0.0016437
0.00164382
0.00164392
0.00164403
0.00164411
0.00164419
0.00164425
0.00164429
0.00164434
0.00164435
0.00164437
0.00164436
0.00164435
0.00164432
0.00164428
0.00164423
0.00164417
0.00164408
0.001644
0.0016439
0.00164377
0.00164366
0.0016435
0.00164336
0.00164319
0.00164301
0.00164282
0.00164262
0.0016424
0.00164217
0.00164193
0.00164167
0.00164141
0.00164112
0.00164084
0.00164052
0.00164021
0.00163988
0.00163954
0.00163917
0.00163881
0.00163843
0.00163803
0.00163763
0.0016372
0.00163677
0.00163633
0.00163587
0.0016354
0.00163491
0.00163442
0.00163391
0.00163338
0.00163285
0.00163231
0.00163174
0.00163117
0.00163059
0.00162999
0.00162937
0.00162875
0.00162812
0.00162746
0.00162681
0.00162612
0.00162544
0.00162474
0.00162403
0.0016233
0.00162256
0.00162181
0.00162105
0.00162027
0.00161948
0.00161867
0.00161786
0.00161704
0.00161619
0.00161534
0.00161447
0.00161359
0.0016127
0.0016118
0.00161088
0.00160995
0.00160901
0.00160805
0.00160708
0.0016061
0.00160511
0.00160411
0.00160308
0.00160205
0.00160101
0.00159995
0.00159888
0.0015978
0.0015967
0.00159559
0.00159448
0.00159334
0.00159219
0.00159104
0.00158986
0.00158868
0.00158748
0.00158628
0.00158505
0.00158382
0.00158257
0.00158131
0.00158004
0.00157875
0.00157746
0.00157614
0.00157483
0.00157348
0.00157214
0.00157078
0.0015694
0.00156802
0.00156662
0.00156521
0.00156379
0.00156235
0.0015609
0.00155944
0.00155797
0.00155648
0.00155498
0.00155347
0.00155195
0.00155041
0.00154886
0.0015473
0.00154573
0.00154414
0.00154255
0.00154093
0.00153931
0.00153768
0.00153602
0.00153437
0.00153269
0.00153101
0.00152931
0.0015276
0.00152588
0.00152415
0.00152239
0.00152064
0.00151887
0.00151708
0.00151529
0.00151348
0.00151166
0.00150982
0.00150799
0.00150612
0.00150425
0.00150238
0.00150048
0.00149857
0.00149666
0.00149472
0.00149278
0.00149083
0.00148886
0.00148688
0.0014849
0.00148289
0.00148087
0.00147885
0.00147681
0.00147475
0.0014727
0.00147062
0.00146853
0.00146643
0.00146432
0.0014622
0.00146007
0.00145791
0.00145576
0.00145359
0.00145141
0.00144921
0.00144701
0.00144478
0.00144256
0.00144032
0.00143806
0.0014358
0.00143352
0.00143124
0.00142893
0.00142662
0.0014243
0.00142196
0.00141962
0.00141725
0.00141489
0.00141251
0.00141011
0.00140771
0.00140529
0.00140286
0.00140042
0.00139798
0.00139551
0.00139303
0.00139055
0.00138806
0.00138554
0.00138303
0.00138049
0.00137796
0.00137539
0.00137284
0.00137026
0.00136767
0.00136507
0.00136246
0.00135984
0.00135721
0.00135456
0.00135191
0.00134924
0.00134657
0.00134388
0.00134118
0.00133847
0.00133574
0.00133302
0.00133027
0.00132751
0.00132475
0.00132198
0.00131919
0.00131639
0.00131358
0.00131076
0.00130792
0.00130509
0.00130224
0.00129937
0.0012965
0.00129361
0.00129072
0.00128781
0.0012849
0.00128196
0.00127903
0.00127608
0.00127313
0.00127015
0.00126717
0.00126418
0.00126118
0.00125817
0.00125514
0.00125212
0.00124907
0.00124601
0.00124296
0.00123987
0.0012368
0.0012337
0.00123059
0.00122748
0.00122436
0.00122121
0.00121808
0.00121491
0.00121176
0.00120857
0.00120539
0.00120219
0.00119899
0.00119577
0.00119254
0.00118931
0.00118606
0.00118281
0.00117954
0.00117626
0.00117298
0.00116969
0.00116638
0.00116306
0.00115974
0.00115641
0.00115306
0.00114971
0.00114634
0.00114298
0.00113959
0.0011362
0.0011328
0.00112939
0.00112597
0.00112254
0.0011191
0.00111565
0.00111219
0.00110873
0.00110525
0.00110177
0.00109827
0.00109477
0.00109126
0.00108773
0.0010842
0.00108066
0.00107712
0.00107355
0.00106999
0.00106641
0.00106283
0.00105923
0.00105563
0.00105201
0.0010484
0.00104477
0.00104112
0.00103749
0.00103382
0.00103016
0.00102649
0.00102281
0.00101911
0.00101542
0.00101171
0.001008
0.00100427
0.00100054
0.00099679
0.00099305
0.00098929
0.00098552
0.00098175
0.00097797
0.00097417
0.00097038
0.00096657
0.00096275
0.00095893
0.0009551
0.00095126
0.00094741
0.00094356
0.00093969
0.00093582
0.00093194
0.00092806
0.00092415
0.00092026
0.00091635
0.00091242
0.00090851
0.00090456
0.00090063
0.00089668
0.00089272
0.00088876
0.00088478
0.00088081
0.00087682
0.00087283
0.00086882
0.00086482
0.0008608
0.00085678
0.00085275
0.00084871
0.00084467
0.00084061
0.00083656
0.00083249
0.00082842
0.00082434
0.00082025
0.00081615
0.00081206
0.00080795
0.00080383
0.00079972
0.00079558
0.00079145
0.00078731
0.00078316
0.00077901
0.00077484
0.00077068
0.0007665
0.00076233
0.00075813
0.00075394
0.00074974
0.00074554
0.00074132
0.00073711
0.00073287
0.00072865
0.00072441
0.00072017
0.00071591
0.00071166
0.0007074
0.00070313
0.00069885
0.00069458
0.00069029
0.000686
0.0006817
0.0006774
0.00067309
0.00066878
0.00066445
0.00066013
0.0006558
0.00065146
0.00064712
0.00064277
0.00063842
0.00063405
0.0006297
0.00062532
0.00062095
0.00061657
0.00061218
0.00060779
0.0006034
0.000599
0.00059459
0.00059018
0.00058576
0.00058134
0.00057692
0.00057248
0.00056805
0.00056361
0.00055917
0.00055471
0.00055026
0.0005458
0.00054133
0.00053687
0.00053239
0.00052792
0.00052343
0.00051895
0.00051445
0.00050996
0.00050546
0.00050096
0.00049645
0.00049193
0.00048742
0.0004829
0.00047837
0.00047384
0.00046931
0.00046478
0.00046023
0.00045569
0.00045113
0.00044659
0.00044203
0.00043747
0.0004329
0.00042834
0.00042376
0.00041919
0.00041462
0.00041003
0.00040544
0.00040086
0.00039626
0.00039167
0.00038707
0.00038246
0.00037786
0.00037326
0.00036864
0.00036402
0.00035941
0.00035478
0.00035016
0.00034554
0.0003409
0.00033627
0.00033163
0.000327
0.00032235
0.00031771
0.00031306
0.00030841
0.00030376
0.00029911
0.00029445
0.00028978
0.00028513
0.00028046
0.00027579
0.00027113
0.00026645
0.00026177
0.0002571
0.00025243
0.00024774
0.00024306
0.00023837
0.00023368
0.000229
0.00022431
0.00021961
0.00021492
0.00021022
0.00020553
0.00020082
0.00019612
0.00019142
0.00018671
0.00018201
0.0001773
0.00017258
0.00016788
0.00016317
0.00015845
0.00015373
0.00014902
0.0001443
0.00013958
0.00013486
0.00013014
0.00012541
0.0001207
0.00011596
0.00011125
0.00010651
0.00010179
9.706e-05
9.233e-05
8.76e-05
8.286e-05
7.814e-05
7.341e-05
6.867e-05
6.394e-05
5.92e-05
5.447e-05
4.974e-05
4.5e-05
4.026e-05
3.553e-05
3.079e-05
2.605e-05
2.132e-05
1.658e-05
1.185e-05
7.1e-06
2.37e-06
-2.37e-06
-7.1e-06
-1.185e-05
-1.658e-05
-2.132e-05
-2.605e-05
-3.079e-05
-3.553e-05
-4.026e-05
-4.5e-05
-4.974e-05
-5.447e-05
-5.92e-05
-6.394e-05
-6.867e-05
-7.341e-05
-7.814e-05
-8.286e-05
-8.76e-05
-9.233e-05
-9.706e-05
-0.00010179
-0.00010651
-0.00011125
-0.00011596
-0.0001207
-0.00012541
-0.00013014
-0.00013486
-0.00013958
-0.0001443
-0.00014902
-0.00015373
-0.00015845
-0.00016317
-0.00016788
-0.00017258
-0.0001773
-0.00018201
-0.00018671
-0.00019142
-0.00019612
-0.00020082
-0.00020553
-0.00021022
-0.00021492
-0.00021961
-0.00022431
-0.000229
-0.00023368
-0.00023837
-0.00024306
-0.00024774
-0.00025243
-0.0002571
-0.00026177
-0.00026645
-0.00027113
-0.00027579
-0.00028046
-0.00028513
-0.00028978
-0.00029445
-0.00029911
-0.00030376
-0.00030841
-0.00031306
-0.00031771
-0.00032235
-0.000327
-0.00033163
-0.00033627
-0.0003409
-0.00034554
-0.00035016
-0.00035478
-0.00035941
-0.00036402
-0.00036864
-0.00037326
-0.00037786
-0.00038246
-0.00038707
-0.00039167
-0.00039626
-0.00040086
-0.00040544
-0.00041003
-0.00041462
-0.00041919
-0.00042376
-0.00042834
-0.0004329
-0.00043747
-0.00044203
-0.00044659
-0.00045113
-0.00045569
-0.00046023
-0.00046478
-0.00046931
-0.00047384
-0.00047837
-0.0004829
-0.00048742
-0.00049193
-0.00049645
-0.00050096
-0.00050546
-0.00050996
-0.00051445
-0.00051895
-0.00052343
-0.00052792
-0.00053239
-0.00053687
-0.00054133
-0.0005458
-0.00055026
-0.00055471
-0.00055917
-0.00056361
-0.00056805
-0.00057248
-0.00057692
-0.00058134
-0.00058576
-0.00059018
-0.00059459
-0.000599
-0.0006034
-0.00060779
-0.00061218
-0.00061657
-0.00062095
-0.00062532
-0.0006297
-0.00063405
-0.00063842
-0.00064277
-0.00064712
-0.00065146
-0.0006558
-0.00066013
-0.00066445
-0.00066878
-0.00067309
-0.0006774
-0.0006817
-0.000686
-0.00069029
-0.00069458
-0.00069885
-0.00070313
-0.0007074
-0.00071166
-0.00071591
-0.00072017
-0.00072441
-0.00072865
-0.00073287
-0.00073711
-0.00074132
-0.00074554
-0.00074974
-0.00075394
-0.00075813
-0.00076233
-0.0007665
-0.00077068
-0.00077484
-0.00077901
-0.00078316
-0.00078731
-0.00079145
-0.00079558
-0.00079972
-0.00080383
-0.00080795
-0.00081206
-0.00081615
-0.00082025
-0.00082434
-0.00082842
-0.00083249
-0.00083656
-0.00084061
-0.00084467
-0.00084871
-0.00085275
-0.00085678
-0.0008608
-0.00086482
-0.00086882
-0.00087283
-0.00087682
-0.00088081
-0.00088478
-0.00088876
-0.00089272
-0.00089668
-0.00090063
-0.00090456
-0.00090851
-0.00091242
-0.00091635
-0.00092026
-0.00092415
-0.00092806
-0.00093194
-0.00093582
-0.00093969
-0.00094356
-0.00094741
-0.00095126
-0.0009551
-0.00095893
-0.00096275
-0.00096657
-0.00097038
-0.00097417
-0.00097797
-0.00098175
-0.00098552
-0.00098929
-0.00099305
-0.00099679
-0.00100054
-0.00100427
-0.001008
-0.00101171
-0.00101542
-0.00101911
-0.00102281
-0.00102649
-0.00103016
-0.00103382
-0.00103749
-0.00104112
-0.00104477
-0.0010484
-0.00105201
-0.00105563
-0.00105923
-0.00106283
-0.00106641
-0.00106999
-0.00107355
-0.00107712
-0.00108066
-0.0010842
-0.00108773
-0.00109126
-0.00109477
-0.00109827
-0.00110177
-0.00110525
-0.00110873
-0.00111219
-0.00111565
-0.0011191
-0.00112254
-0.00112597
-0.00112939
-0.0011328
-0.0011362
-0.00113959
-0.00114298
-0.00114634
-0.00114971
-0.00115306
-0.00115641
-0.00115974
-0.00116306
-0.00116638
-0.00116969
-0.00117298
-0.00117626
-0.00117954
-0.00118281
-0.00118606
-0.00118931
-0.00119254
-0.00119577
-0.00119899
-0.00120219
-0.00120539
-0.00120857
-0.00121176
-0.00121491
-0.00121808
-0.00122121
-0.00122436
-0.00122748
-0.00123059
-0.0012337
-0.0012368
-0.00123987
-0.00124296
-0.00124601
-0.00124907
-0.00125212
-0.00125514
-0.00125817
-0.00126118
-0.00126418
-0.00126717
-0.00127015
-0.00127313
-0.00127608
-0.00127903
-0.00128196
-0.0012849
-0.00128781
-0.00129072
-0.00129361
-0.0012965
-0.00129937
-0.00130224
-0.00130509
-0.00130792
-0.00131076
-0.00131358
-0.00131639
-0.00131919
-0.00132198
-0.00132475
-0.00132751
-0.00133027
-0.00133302
-0.00133574
-0.00133847
-0.00134118
-0.00134388
-0.00134657
-0.00134924
-0.00135191
-0.00135456
-0.00135721
-0.00135984
-0.00136246
-0.00136507
-0.00136767
-0.00137026
-0.00137284
-0.00137539
-0.00137796
-0.00138049
-0.00138303
-0.00138554
-0.00138806
-0.00139055
-0.00139303
-0.00139551
-0.00139798
-0.00140042
-0.00140286
-0.00140529
-0.00140771
-0.00141011
-0.00141251
-0.00141489
-0.00141725
-0.00141962
-0.00142196
-0.0014243
-0.00142662
-0.00142893
-0.00143124
-0.00143352
-0.0014358
-0.00143806
-0.00144032
-0.00144256
-0.00144478
-0.00144701
-0.00144921
-0.00145141
-0.00145359
-0.00145576
-0.00145791
-0.00146007
-0.0014622
-0.00146432
-0.00146643
-0.00146853
