# Pulseq sequence file
# Created by PyPulseq

[VERSION]
major 1
minor 3
revision 0

[DEFINITIONS]
offsets_ppm -2 -1.86667 -1.73333 -1.6 -1.46667 -1.33333 -1.2 -1.06667 -0.933333 -0.8 -0.666667 -0.533333 -0.4 -0.266667 -0.133333 0 0.133333 0.266667 0.4 0.533333 0.666667 0.8 0.933333 1.06667 1.2 1.33333 1.46667 1.6 1.73333 1.86667 2 
run_m0_scan True 
seq_name WASABI.seq 
date 2020-11-29 

# Format of blocks:
#  #  D RF  GX  GY  GZ ADC EXT
[BLOCKS]
  1   1   0   0   0   0   0   0   
  2   0   0   0   0   0   1   0   
  3   1   0   0   0   0   0   0   
  4   0   1   0   0   0   0   0   
  5   0   0   1   1   1   0   0   
  6   2   0   0   0   0   0   0   
  7   0   0   0   0   0   1   0   
  8   3   0   0   0   0   0   0   
  9   0   2   0   0   0   0   0   
 10   0   0   1   1   1   0   0   
 11   2   0   0   0   0   0   0   
 12   0   0   0   0   0   1   0   
 13   3   0   0   0   0   0   0   
 14   0   3   0   0   0   0   0   
 15   0   0   1   1   1   0   0   
 16   2   0   0   0   0   0   0   
 17   0   0   0   0   0   1   0   
 18   3   0   0   0   0   0   0   
 19   0   4   0   0   0   0   0   
 20   0   0   1   1   1   0   0   
 21   2   0   0   0   0   0   0   
 22   0   0   0   0   0   1   0   
 23   3   0   0   0   0   0   0   
 24   0   5   0   0   0   0   0   
 25   0   0   1   1   1   0   0   
 26   2   0   0   0   0   0   0   
 27   0   0   0   0   0   1   0   
 28   3   0   0   0   0   0   0   
 29   0   6   0   0   0   0   0   
 30   0   0   1   1   1   0   0   
 31   2   0   0   0   0   0   0   
 32   0   0   0   0   0   1   0   
 33   3   0   0   0   0   0   0   
 34   0   7   0   0   0   0   0   
 35   0   0   1   1   1   0   0   
 36   2   0   0   0   0   0   0   
 37   0   0   0   0   0   1   0   
 38   3   0   0   0   0   0   0   
 39   0   8   0   0   0   0   0   
 40   0   0   1   1   1   0   0   
 41   2   0   0   0   0   0   0   
 42   0   0   0   0   0   1   0   
 43   3   0   0   0   0   0   0   
 44   0   9   0   0   0   0   0   
 45   0   0   1   1   1   0   0   
 46   2   0   0   0   0   0   0   
 47   0   0   0   0   0   1   0   
 48   3   0   0   0   0   0   0   
 49   0  10   0   0   0   0   0   
 50   0   0   1   1   1   0   0   
 51   2   0   0   0   0   0   0   
 52   0   0   0   0   0   1   0   
 53   3   0   0   0   0   0   0   
 54   0  11   0   0   0   0   0   
 55   0   0   1   1   1   0   0   
 56   2   0   0   0   0   0   0   
 57   0   0   0   0   0   1   0   
 58   3   0   0   0   0   0   0   
 59   0  12   0   0   0   0   0   
 60   0   0   1   1   1   0   0   
 61   2   0   0   0   0   0   0   
 62   0   0   0   0   0   1   0   
 63   3   0   0   0   0   0   0   
 64   0  13   0   0   0   0   0   
 65   0   0   1   1   1   0   0   
 66   2   0   0   0   0   0   0   
 67   0   0   0   0   0   1   0   
 68   3   0   0   0   0   0   0   
 69   0  14   0   0   0   0   0   
 70   0   0   1   1   1   0   0   
 71   2   0   0   0   0   0   0   
 72   0   0   0   0   0   1   0   
 73   3   0   0   0   0   0   0   
 74   0  15   0   0   0   0   0   
 75   0   0   1   1   1   0   0   
 76   2   0   0   0   0   0   0   
 77   0   0   0   0   0   1   0   
 78   3   0   0   0   0   0   0   
 79   0  16   0   0   0   0   0   
 80   0   0   1   1   1   0   0   
 81   2   0   0   0   0   0   0   
 82   0   0   0   0   0   1   0   
 83   3   0   0   0   0   0   0   
 84   0  17   0   0   0   0   0   
 85   0   0   1   1   1   0   0   
 86   2   0   0   0   0   0   0   
 87   0   0   0   0   0   1   0   
 88   3   0   0   0   0   0   0   
 89   0  18   0   0   0   0   0   
 90   0   0   1   1   1   0   0   
 91   2   0   0   0   0   0   0   
 92   0   0   0   0   0   1   0   
 93   3   0   0   0   0   0   0   
 94   0  19   0   0   0   0   0   
 95   0   0   1   1   1   0   0   
 96   2   0   0   0   0   0   0   
 97   0   0   0   0   0   1   0   
 98   3   0   0   0   0   0   0   
 99   0  20   0   0   0   0   0   
100   0   0   1   1   1   0   0   
101   2   0   0   0   0   0   0   
102   0   0   0   0   0   1   0   
103   3   0   0   0   0   0   0   
104   0  21   0   0   0   0   0   
105   0   0   1   1   1   0   0   
106   2   0   0   0   0   0   0   
107   0   0   0   0   0   1   0   
108   3   0   0   0   0   0   0   
109   0  22   0   0   0   0   0   
110   0   0   1   1   1   0   0   
111   2   0   0   0   0   0   0   
112   0   0   0   0   0   1   0   
113   3   0   0   0   0   0   0   
114   0  23   0   0   0   0   0   
115   0   0   1   1   1   0   0   
116   2   0   0   0   0   0   0   
117   0   0   0   0   0   1   0   
118   3   0   0   0   0   0   0   
119   0  24   0   0   0   0   0   
120   0   0   1   1   1   0   0   
121   2   0   0   0   0   0   0   
122   0   0   0   0   0   1   0   
123   3   0   0   0   0   0   0   
124   0  25   0   0   0   0   0   
125   0   0   1   1   1   0   0   
126   2   0   0   0   0   0   0   
127   0   0   0   0   0   1   0   
128   3   0   0   0   0   0   0   
129   0  26   0   0   0   0   0   
130   0   0   1   1   1   0   0   
131   2   0   0   0   0   0   0   
132   0   0   0   0   0   1   0   
133   3   0   0   0   0   0   0   
134   0  27   0   0   0   0   0   
135   0   0   1   1   1   0   0   
136   2   0   0   0   0   0   0   
137   0   0   0   0   0   1   0   
138   3   0   0   0   0   0   0   
139   0  28   0   0   0   0   0   
140   0   0   1   1   1   0   0   
141   2   0   0   0   0   0   0   
142   0   0   0   0   0   1   0   
143   3   0   0   0   0   0   0   
144   0  29   0   0   0   0   0   
145   0   0   1   1   1   0   0   
146   2   0   0   0   0   0   0   
147   0   0   0   0   0   1   0   
148   3   0   0   0   0   0   0   
149   0  30   0   0   0   0   0   
150   0   0   1   1   1   0   0   
151   2   0   0   0   0   0   0   
152   0   0   0   0   0   1   0   
153   3   0   0   0   0   0   0   
154   0  31   0   0   0   0   0   
155   0   0   1   1   1   0   0   
156   2   0   0   0   0   0   0   
157   0   0   0   0   0   1   0   

# Format of RF events:
# id amplitude mag_id phase_id delay freq phase
# ..        Hz   ....     ....    us   Hz   rad
[RF]
1       159.66 1 2 100 -255.456 0
2       159.66 1 2 100 -238.426 0
3       159.66 1 2 100 -221.395 0
4       159.66 1 2 100 -204.365 0
5       159.66 1 2 100 -187.334 0
6       159.66 1 2 100 -170.304 0
7       159.66 1 2 100 -153.274 0
8       159.66 1 2 100 -136.243 0
9       159.66 1 2 100 -119.213 0
10       159.66 1 2 100 -102.182 0
11       159.66 1 2 100 -85.152 0
12       159.66 1 2 100 -68.1216 0
13       159.66 1 2 100 -51.0912 0
14       159.66 1 2 100 -34.0608 0
15       159.66 1 2 100 -17.0304 0
16       159.66 1 2 100 0 0
17       159.66 1 2 100 17.0304 0
18       159.66 1 2 100 34.0608 0
19       159.66 1 2 100 51.0912 0
20       159.66 1 2 100 68.1216 0
21       159.66 1 2 100 85.152 0
22       159.66 1 2 100 102.182 0
23       159.66 1 2 100 119.213 0
24       159.66 1 2 100 136.243 0
25       159.66 1 2 100 153.274 0
26       159.66 1 2 100 170.304 0
27       159.66 1 2 100 187.334 0
28       159.66 1 2 100 204.365 0
29       159.66 1 2 100 221.395 0
30       159.66 1 2 100 238.426 0
31       159.66 1 2 100 255.456 0

# Format of trapezoid gradients:
# id amplitude rise flat fall delay
# ..      Hz/m   us   us   us    us
[TRAP]
 1  1.36243e+06 1000 3500 1000   0

# Format of ADC events:
# id num dwell delay freq phase
# ..  ..    ns    us   Hz   rad
[ADC]
1 1 1000000 0 0 0

# Format of delays:
# id delay (us)
[DELAYS]
1 12000000
2 50
3 2000000

# Sequence Shapes
[SHAPES]

shape_id 1
num_samples 5030
1
0
0
4996
-1
0
0
27

shape_id 2
num_samples 5030
0
0
5028

